Incident energy ; JENDL/AD-2017 ; TENDL-2019 ; ENDF/B-VIII.0 ; BROND-3.1 ; JEFF-4.0
Incident energy ;  ;  ;  ;  ; 
Incident energy ; σ(E) ; σ(E) ; σ(E) ; σ(E) ; σ(E)
1.0E-5 ; 0.002741682 ;  ;  ;  ; 0.002736514
1.032229E-5 ; 0.0027006326192532777 ;  ;  ;  ; 0.002693448
1.065491E-5 ; 0.0026582675287323975 ;  ;  ;  ; 0.002651065
1.09983E-5 ; 0.0026145306865883134 ;  ;  ;  ; 0.002609343
1.103037E-5 ; 0.002610446 ;  ;  ;  ; 0.0026056276360712166
1.135271E-5 ; 0.0025750057303570487 ;  ;  ;  ; 0.002568284
1.171859E-5 ; 0.0025347783745930633 ;  ;  ;  ; 0.002527864
1.209621E-5 ; 0.002493260242736727 ;  ;  ;  ; 0.002488086
1.216691E-5 ; 0.002485487 ;  ;  ;  ; 0.0024809844439770165
1.248605E-5 ; 0.002455197924715229 ;  ;  ;  ; 0.002448928
1.28884E-5 ; 0.00241701151924795 ;  ;  ;  ; 0.002410391
1.330378E-5 ; 0.0023775884569812705 ;  ;  ;  ; 0.002372456
1.342055E-5 ; 0.002366506 ;  ;  ;  ; 0.0023622869046419407
1.373248E-5 ; 0.0023409503924328 ;  ;  ;  ; 0.002335122
1.417505E-5 ; 0.002304691791974313 ;  ;  ;  ; 0.00229837
1.463183E-5 ; 0.0022672690034494978 ;  ;  ;  ; 0.002262202
1.480336E-5 ; 0.002253216 ;  ;  ;  ; 0.0022492510412248706
1.510339E-5 ; 0.0022319971916684696 ;  ;  ;  ; 0.002226598
1.559008E-5 ; 0.0021975773608953054 ;  ;  ;  ; 0.002191558
1.609253E-5 ; 0.0021620429468494516 ;  ;  ;  ; 0.002157065
1.632865E-5 ; 0.002145344 ;  ;  ;  ; 0.002141608101049059
1.661109E-5 ; 0.002128101404467268 ;  ;  ;  ; 0.002123119
1.714644E-5 ; 0.0020954189815864865 ;  ;  ;  ; 0.002089703
1.769897E-5 ; 0.0020616877419968377 ;  ;  ;  ; 0.002056816
1.801111E-5 ; 0.002042632 ;  ;  ;  ; 0.0020391008333304115
1.826938E-5 ; 0.0020290214020206917 ;  ;  ;  ; 0.002024443
1.885809E-5 ; 0.0019979969116176314 ;  ;  ;  ; 0.001992583
1.946586E-5 ; 0.001965967976263606 ;  ;  ;  ; 0.00196122
1.986691E-5 ; 0.001944833 ;  ;  ;  ; 0.0019414859052864842
2.009312E-5 ; 0.001934542419197569 ;  ;  ;  ; 0.001930355
2.074069E-5 ; 0.00190508363572102 ;  ;  ;  ; 0.00189997
2.140904E-5 ; 0.0018746795435973093 ;  ;  ;  ; 0.001870068
2.191394E-5 ; 0.001851711 ;  ;  ;  ; 0.0018485279026058728
2.209902E-5 ; 0.0018444429654908214 ;  ;  ;  ; 0.001840632
2.281114E-5 ; 0.0018164782327553754 ;  ;  ;  ; 0.001811663
2.354631E-5 ; 0.0017876083336300628 ;  ;  ;  ; 0.001783146
2.417189E-5 ; 0.001763042 ;  ;  ;  ; 0.001760006754266886
2.430506E-5 ; 0.001758527643991986 ;  ;  ;  ; 0.001755081
2.508838E-5 ; 0.0017319737253301425 ;  ;  ;  ; 0.001727454
2.589682E-5 ; 0.0017045682588503126 ;  ;  ;  ; 0.001700265
2.666248E-5 ; 0.001678613 ;  ;  ;  ; 0.0016757114428122978
2.673144E-5 ; 0.0016765950534283623 ;  ;  ;  ; 0.0016735
2.759283E-5 ; 0.0016513885714483315 ;  ;  ;  ; 0.001647159
2.84821E-5 ; 0.0016253662491200228 ;  ;  ;  ; 0.00162123
2.939991E-5 ; 0.0015985087731496819 ;  ;  ;  ; 0.001595711
2.940971E-5 ; 0.001598222 ;  ;  ;  ; 0.0015954511863832573
3.034742E-5 ; 0.0015745347871450825 ;  ;  ;  ; 0.001570591
3.132534E-5 ; 0.0015498318414634952 ;  ;  ;  ; 0.001545869
3.233491E-5 ; 0.0015243293945641984 ;  ;  ;  ; 0.001521532
3.243999E-5 ; 0.001521675 ;  ;  ;  ; 0.0015191165567637601
3.337686E-5 ; 0.001501245610291038 ;  ;  ;  ; 0.001497581
3.445255E-5 ; 0.0014777891112932756 ;  ;  ;  ; 0.001474004
3.556274E-5 ; 0.001453580305203858 ;  ;  ;  ; 0.001450801
3.578251E-5 ; 0.001448788 ;  ;  ;  ; 0.0014464210932346835
3.670888E-5 ; 0.0014313499061140462 ;  ;  ;  ; 0.001427959
3.789178E-5 ; 0.0014090828624298871 ;  ;  ;  ; 0.00140548
3.911298E-5 ; 0.0013860948552043438 ;  ;  ;  ; 0.001383351
3.946943E-5 ; 0.001379385 ;  ;  ;  ; 0.0013771921643803008
4.037335E-5 ; 0.0013646966695198448 ;  ;  ;  ; 0.001361574
4.167452E-5 ; 0.0013435531889343243 ;  ;  ;  ; 0.001340135
4.301744E-5 ; 0.0013217312879160816 ;  ;  ;  ; 0.001319037
4.353624E-5 ; 0.001313301 ;  ;  ;  ; 0.0013112650475190963
4.440383E-5 ; 0.0013011310980061705 ;  ;  ;  ; 0.001298268
4.583469E-5 ; 0.001281060066796854 ;  ;  ;  ; 0.001277828
4.731188E-5 ; 0.0012603391530861556 ;  ;  ;  ; 0.001257706
4.802208E-5 ; 0.001250377 ;  ;  ;  ; 0.0012484815102094362
4.883645E-5 ; 0.001240515618791241 ;  ;  ;  ; 0.001237904
5.041038E-5 ; 0.001221456562433686 ;  ;  ;  ; 0.001218411
5.20348E-5 ; 0.00120178611182385 ;  ;  ;  ; 0.001199226
5.297013E-5 ; 0.00119046 ;  ;  ;  ; 0.0011886930798747763
5.37118E-5 ; 0.0011827072174470674 ;  ;  ;  ; 0.001180341
5.54426E-5 ; 0.0011646149175797197 ;  ;  ;  ; 0.001161755
5.722944E-5 ; 0.0011459368235798514 ;  ;  ;  ; 0.001143459
5.842801E-5 ; 0.001133408 ;  ;  ;  ; 0.0011317563448906003
5.907359E-5 ; 0.0011275824625629543 ;  ;  ;  ; 0.001125453
6.097745E-5 ; 0.0011104025503833733 ;  ;  ;  ; 0.001107728
6.294238E-5 ; 0.0010926715592185694 ;  ;  ;  ; 0.001090284
6.444825E-5 ; 0.001079083 ;  ;  ;  ; 0.0010775357645646624
6.497092E-5 ; 0.0010750115551579986 ;  ;  ;  ; 0.001073111
6.706453E-5 ; 0.001058702951955859 ;  ;  ;  ; 0.001056211
6.922592E-5 ; 0.0010418663625838785 ;  ;  ;  ; 0.001039575
7.108881E-5 ; 0.001027355 ;  ;  ;  ; 0.0010259018535546658
7.145665E-5 ; 0.0010248814607167187 ;  ;  ;  ; 0.001023202
7.375959E-5 ; 0.0010093953456747449 ;  ;  ;  ; 0.001007084
7.613642E-5 ; 9.934123574878119E-4 ;  ;  ;  ; 9.91222E-4
7.841358E-5 ; 9.780996E-4 ;  ;  ;  ; 9.767308299589203E-4
7.859018E-5 ; 9.770744500600286E-4 ;  ;  ;  ; 9.75607E-4
8.112266E-5 ; 9.62373590943499E-4 ;  ;  ;  ; 9.6024E-4
8.373712E-5 ; 9.471968439896033E-4 ;  ;  ;  ; 9.45112E-4
8.643546E-5 ; 9.315331798388515E-4 ;  ;  ;  ; 9.30224E-4
8.649308E-5 ; 9.311987E-4 ;  ;  ;  ; 9.299208511499842E-4
8.922115E-5 ; 9.175280754568568E-4 ;  ;  ;  ; 9.15568E-4
9.20962E-5 ; 9.031209198146765E-4 ;  ;  ;  ; 9.01145E-4
9.506433E-5 ; 8.882473312244864E-4 ;  ;  ;  ; 8.86946E-4
9.540506E-5 ; 8.865399E-4 ;  ;  ;  ; 8.853916961943498E-4
9.812767E-5 ; 8.747623650284225E-4 ;  ;  ;  ; 8.72972E-4
1.012902E-4 ; 8.610818130310145E-4 ;  ;  ;  ; 8.59216E-4
1.045541E-4 ; 8.469627521321962E-4 ;  ;  ;  ; 8.45678E-4
1.052353E-4 ; 8.44016E-4 ;  ;  ;  ; 8.429838870522598E-4
1.079238E-4 ; 8.339764307347529E-4 ;  ;  ;  ; 8.32351E-4
1.114015E-4 ; 8.209897801735666E-4 ;  ;  ;  ; 8.19236E-4
1.149918E-4 ; 8.075826514649868E-4 ;  ;  ;  ; 8.06325E-4
1.160784E-4 ; 8.03525E-4 ;  ;  ;  ; 8.02598802131966E-4
1.186973E-4 ; 7.950828333918599E-4 ;  ;  ;  ; 7.93618E-4
1.225227E-4 ; 7.827514484047356E-4 ;  ;  ;  ; 7.8111E-4
1.264709E-4 ; 7.700242109377613E-4 ;  ;  ;  ; 7.68799E-4
1.280388E-4 ; 7.6497E-4 ;  ;  ;  ; 7.641374989327511E-4
1.305468E-4 ; 7.579909553768372E-4 ;  ;  ;  ; 7.56681E-4
1.347536E-4 ; 7.462846376253534E-4 ;  ;  ;  ; 7.44755E-4
1.390965E-4 ; 7.341995926118232E-4 ;  ;  ;  ; 7.33014E-4
1.412315E-4 ; 7.282585E-4 ;  ;  ;  ; 7.275104994868592E-4
1.435787E-4 ; 7.226202585255737E-4 ;  ;  ;  ; 7.2146E-4
1.48206E-4 ; 7.11504957411645E-4 ;  ;  ;  ; 7.10086E-4
1.529818E-4 ; 7.000329424007532E-4 ;  ;  ;  ; 6.98892E-4
1.557836E-4 ; 6.933027E-4 ;  ;  ;  ; 6.926296610417005E-4
1.579122E-4 ; 6.888889000722675E-4 ;  ;  ;  ; 6.87872E-4
1.630007E-4 ; 6.783375419343986E-4 ;  ;  ;  ; 6.77027E-4
1.68254E-4 ; 6.674444595514437E-4 ;  ;  ;  ; 6.66351E-4
1.718351E-4 ; 6.600188E-4 ;  ;  ;  ; 6.594117848684939E-4
1.736758E-4 ; 6.567240496116982E-4 ;  ;  ;  ; 6.55845E-4
1.792731E-4 ; 6.467051946388935E-4 ;  ;  ;  ; 6.45502E-4
1.8505E-4 ; 6.363648656780739E-4 ;  ;  ;  ; 6.35323E-4
1.895404E-4 ; 6.283273E-4 ;  ;  ;  ; 6.27778640101276E-4
1.910139E-4 ; 6.26050613217817E-4 ;  ;  ;  ; 6.25303E-4
1.971691E-4 ; 6.165402891718768E-4 ;  ;  ;  ; 6.15441E-4
2.035236E-4 ; 6.067220291397204E-4 ;  ;  ;  ; 6.05733E-4
2.090701E-4 ; 5.981522E-4 ;  ;  ;  ; 5.976538156839424E-4
2.100819E-4 ; 5.968027450568427E-4 ;  ;  ;  ; 5.9618E-4
2.168525E-4 ; 5.877726801841992E-4 ;  ;  ;  ; 5.86775E-4
2.238404E-4 ; 5.784527985897251E-4 ;  ;  ;  ; 5.77519E-4
2.30612E-4 ; 5.694214E-4 ;  ;  ;  ; 5.689657952314944E-4
2.310544E-4 ; 5.6891209336745E-4 ;  ;  ;  ; 5.68407E-4
2.384999E-4 ; 5.603405686553094E-4 ;  ;  ;  ; 5.5944E-4
2.461864E-4 ; 5.514915961618746E-4 ;  ;  ;  ; 5.50613E-4
2.541195E-4 ; 5.423587289677462E-4 ;  ;  ;  ; 5.41925E-4
2.543736E-4 ; 5.420662E-4 ;  ;  ;  ; 5.41659665478211E-4
2.623094E-4 ; 5.341802676553515E-4 ;  ;  ;  ; 5.33373E-4
2.70762E-4 ; 5.257807828225212E-4 ;  ;  ;  ; 5.24957E-4
2.794882E-4 ; 5.171094172606534E-4 ;  ;  ;  ; 5.16672E-4
2.805835E-4 ; 5.16021E-4 ;  ;  ;  ; 5.156803413426306E-4
2.884944E-4 ; 5.092355611385522E-4 ;  ;  ;  ; 5.08518E-4
2.977922E-4 ; 5.01260532577204E-4 ;  ;  ;  ; 5.00491E-4
3.073882E-4 ; 4.930297280777853E-4 ;  ;  ;  ; 4.92592E-4
3.094939E-4 ; 4.912236E-4 ;  ;  ;  ; 4.909391869340951E-4
3.172949E-4 ; 4.854481891568646E-4 ;  ;  ;  ; 4.84816E-4
3.275194E-4 ; 4.7787855857544696E-4 ;  ;  ;  ; 4.77163E-4
3.380748E-4 ; 4.7006394870317006E-4 ;  ;  ;  ; 4.6963E-4
3.413832E-4 ; 4.676146E-4 ;  ;  ;  ; 4.6737846223185024E-4
3.489689E-4 ; 4.627672706096073E-4 ;  ;  ;  ; 4.62216E-4
3.602157E-4 ; 4.555804659392582E-4 ;  ;  ;  ; 4.54917E-4
3.718232E-4 ; 4.481631707787611E-4 ;  ;  ;  ; 4.47735E-4
3.765583E-4 ; 4.451374E-4 ;  ;  ;  ; 4.4494095394423904E-4
3.838065E-4 ; 4.4113975039046993E-4 ;  ;  ;  ; 4.40664E-4
3.961743E-4 ; 4.343184525729779E-4 ;  ;  ;  ; 4.33706E-4
4.089424E-4 ; 4.272763745426476E-4 ;  ;  ;  ; 4.26856E-4
4.153577E-4 ; 4.237381E-4 ;  ;  ;  ; 4.2357476564195567E-4
4.221201E-4 ; 4.2051900280485634E-4 ;  ;  ;  ; 4.20116E-4
4.357244E-4 ; 4.140429641245222E-4 ;  ;  ;  ; 4.1348E-4
4.497652E-4 ; 4.073591388705336E-4 ;  ;  ;  ; 4.06949E-4
4.581549E-4 ; 4.033654E-4 ;  ;  ;  ; 4.0322852759534187E-4
4.642604E-4 ; 4.008569365539783E-4 ;  ;  ;  ; 4.00521E-4
4.792207E-4 ; 3.9471045130436437E-4 ;  ;  ;  ; 3.94194E-4
4.946653E-4 ; 3.883649899107969E-4 ;  ;  ;  ; 3.87967E-4
5.053618E-4 ; 3.839703E-4 ;  ;  ;  ; 3.838541487766625E-4
5.106053E-4 ; 3.821109928232606E-4 ;  ;  ;  ; 3.81838E-4
5.270614E-4 ; 3.7627577878089527E-4 ;  ;  ;  ; 3.75805E-4
5.440453E-4 ; 3.7025341067580805E-4 ;  ;  ;  ; 3.69867E-4
5.574328E-4 ; 3.655063E-4 ;  ;  ;  ; 3.654049581151832E-4
5.615791E-4 ; 3.642373911844641E-4 ;  ;  ;  ; 3.64023E-4
5.796754E-4 ; 3.5869930792985596E-4 ;  ;  ;  ; 3.58271E-4
5.983575E-4 ; 3.5298194995220776E-4 ;  ;  ;  ; 3.52609E-4
6.148689E-4 ; 3.479289E-4 ;  ;  ;  ; 3.4783748336739037E-4
6.176389E-4 ; 3.47197284876796E-4 ;  ;  ;  ; 3.47037E-4
6.375445E-4 ; 3.419397982354789E-4 ;  ;  ;  ; 3.41553E-4
6.580886E-4 ; 3.3651367034644847E-4 ;  ;  ;  ; 3.36155E-4
6.782232E-4 ; 3.311957E-4 ;  ;  ;  ; 3.3111119213360236E-4
6.792978E-4 ; 3.309507480346871E-4 ;  ;  ;  ; 3.30842E-4
7.011875E-4 ; 3.259610541624453E-4 ;  ;  ;  ; 3.25613E-4
7.237857E-4 ; 3.2080985976217055E-4 ;  ;  ;  ; 3.20466E-4
7.471089E-4 ; 3.154934037065339E-4 ;  ;  ;  ; 3.154E-4
7.481052E-4 ; 3.152663E-4 ;  ;  ;  ; 3.151936908988214E-4
7.711871E-4 ; 3.107255296357798E-4 ;  ;  ;  ; 3.10414E-4
7.960378E-4 ; 3.058367933493335E-4 ;  ;  ;  ; 3.05508E-4
8.216929E-4 ; 3.00789812044887E-4 ;  ;  ;  ; 3.00678E-4
8.251877E-4 ; 3.001023E-4 ;  ;  ;  ; 3.0005065950351425E-4
8.48171E-4 ; 2.9620025223875857E-4 ;  ;  ;  ; 2.95925E-4
8.755063E-4 ; 2.915593326942257E-4 ;  ;  ;  ; 2.91246E-4
9.037186E-4 ; 2.8676951826137786E-4 ;  ;  ;  ; 2.86641E-4
9.102125E-4 ; 2.85667E-4 ;  ;  ;  ; 2.8563053306209337E-4
9.328441E-4 ; 2.8235103038593386E-4 ;  ;  ;  ; 2.82109E-4
9.629039E-4 ; 2.779466849837128E-4 ;  ;  ;  ; 2.77649E-4
9.939369E-4 ; 2.7339974685148557E-4 ;  ;  ;  ; 2.73258E-4
0.001003998 ; 2.719256E-4 ;  ;  ;  ; 2.7190096011364874E-4
0.0010259654 ; 2.691478702717281E-4 ;  ;  ;  ; 2.68938E-4
0.0010590308 ; 2.6496682269408115E-4 ;  ;  ;  ; 2.64685E-4
0.0010931569 ; 2.6065165191920653E-4 ;  ;  ;  ; 2.605E-4
0.001107447 ; 2.588447E-4 ;  ;  ;  ; 2.588288709878856E-4
0.0011283877 ; 2.565595342756862E-4 ;  ;  ;  ; 2.5638E-4
0.0011647488 ; 2.525916086849301E-4 ;  ;  ;  ; 2.52326E-4
0.0012022869 ; 2.4849524230387E-4 ;  ;  ;  ; 2.48336E-4
0.001221555 ; 2.463926E-4 ;  ;  ;  ; 2.463829504031759E-4
0.0012410293 ; 2.44558613425575E-4 ;  ;  ;  ; 2.44409E-4
0.0012810258 ; 2.407919545970683E-4 ;  ;  ;  ; 2.40543E-4
0.0013223054 ; 2.3690446019687761E-4 ;  ;  ;  ; 2.36739E-4
0.00134742 ; 2.345393E-4 ;  ;  ;  ; 2.3453257371879106E-4
0.0013649214 ; 2.331169157370673E-4 ;  ;  ;  ; 2.32995E-4
0.0014089045 ; 2.2954229489102095E-4 ;  ;  ;  ; 2.2931E-4
0.0014543114 ; 2.2585195811861646E-4 ;  ;  ;  ; 2.25683E-4
0.001486254 ; 2.232559E-4 ;  ;  ;  ; 2.232503414035627E-4
0.001501175 ; 2.2220937705809757E-4 ;  ;  ;  ; 2.22114E-4
0.0015495556 ; 2.1881607849613753E-4 ;  ;  ;  ; 2.18601E-4
0.0015994883 ; 2.15313919384742E-4 ;  ;  ;  ; 2.15144E-4
0.001639393 ; 2.125151E-4 ;  ;  ;  ; 2.1250970705073986E-4
0.0016510375 ; 2.1181028644016623E-4 ;  ;  ;  ; 2.11741E-4
0.0017042403 ; 2.0859004900093534E-4 ;  ;  ;  ; 2.08392E-4
0.0017591655 ; 2.0526555883505605E-4 ;  ;  ;  ; 2.05096E-4
0.001808311 ; 2.022909E-4 ;  ;  ;  ; 2.0228357879658687E-4
0.0018158526 ; 2.018969718867773E-4 ;  ;  ;  ; 2.01852E-4
0.0018743749 ; 1.9884011668092505E-4 ;  ;  ;  ; 1.9866E-4
0.0019347745 ; 1.9568520254235923E-4 ;  ;  ;  ; 1.95518E-4
0.001994634 ; 1.925585E-4 ;  ;  ;  ; 1.925487844840029E-4
0.0019971295 ; 1.9244601362634474E-4 ;  ;  ;  ; 1.92425E-4
0.0020614848 ; 1.895451543506503E-4 ;  ;  ;  ; 1.89382E-4
0.0021279233 ; 1.865503934065132E-4 ;  ;  ;  ; 1.86387E-4
0.0021964933 ; 1.8345955363831436E-4 ;  ;  ;  ; 1.83439E-4
0.002200155 ; 1.832945E-4 ;  ;  ;  ; 1.8328894177551005E-4
0.0022672831 ; 1.806833508120495E-4 ;  ;  ;  ; 1.80538E-4
0.0023403438 ; 1.7784143531800013E-4 ;  ;  ;  ; 1.77683E-4
0.0024157696 ; 1.7490752215167316E-4 ;  ;  ;  ; 1.74873E-4
0.002426853 ; 1.744764E-4 ;  ;  ;  ; 1.744793279059162E-4
0.0024936151 ; 1.7223550236659932E-4 ;  ;  ;  ; 1.72108E-4
0.0025739806 ; 1.6953800095850913E-4 ;  ;  ;  ; 1.69387E-4
0.0026569243 ; 1.6675396119589692E-4 ;  ;  ;  ; 1.66709E-4
0.002676908 ; 1.660832E-4 ;  ;  ;  ; 1.660940537319847E-4
0.002742553 ; 1.6418201992669158E-4 ;  ;  ;  ; 1.64074E-4
0.0028309288 ; 1.6162252095612732E-4 ;  ;  ;  ; 1.6148E-4
0.0029221654 ; 1.589801688215183E-4 ;  ;  ;  ; 1.58928E-4
0.002952729 ; 1.58095E-4 ;  ;  ;  ; 1.5811298018767337E-4
0.003016329 ; 1.5650581527741256E-4 ;  ;  ;  ; 1.56417E-4
0.0031135408 ; 1.540767664186826E-4 ;  ;  ;  ; 1.53945E-4
0.0032138712 ; 1.5156979253674727E-4 ;  ;  ;  ; 1.51514E-4
0.003256969 ; 1.504929E-4 ;  ;  ;  ; 1.505178827321939E-4
0.0033174495 ; 1.4918913457006804E-4 ;  ;  ;  ; 1.4912E-4
0.0034243507 ; 1.4688468786446475E-4 ;  ;  ;  ; 1.46766E-4
0.0035347124 ; 1.445056438875049E-4 ;  ;  ;  ; 1.44448E-4
0.003592557 ; 1.432587E-4 ;  ;  ;  ; 1.432901146562577E-4
0.0036486146 ; 1.4221616305733103E-4 ;  ;  ;  ; 1.42168E-4
0.0037662041 ; 1.4002928031850575E-4 ;  ;  ;  ; 1.39925E-4
0.0038875659 ; 1.3777224184506408E-4 ;  ;  ;  ; 1.37717E-4
0.003962723 ; 1.363745E-4 ;  ;  ;  ; 1.3641349831152404E-4
0.0040128564 ; 1.3557002190680052E-4 ;  ;  ;  ; 1.35544E-4
0.0041421662 ; 1.334950199852072E-4 ;  ;  ;  ; 1.33406E-4
0.0042756621 ; 1.3135284476705028E-4 ;  ;  ;  ; 1.31301E-4
0.00437103 ; 1.298225E-4 ;  ;  ;  ; 1.2986748954009516E-4
0.0044134406 ; 1.292351434599458E-4 ;  ;  ;  ; 1.2923E-4
0.0045556793 ; 1.272652389857386E-4 ;  ;  ;  ; 1.27192E-4
0.004702481 ; 1.25232140218306E-4 ;  ;  ;  ; 1.25185E-4
0.004821407 ; 1.235851E-4 ;  ;  ;  ; 1.2363519695949958E-4
0.004854035 ; 1.2319501601903442E-4 ;  ;  ;  ; 1.2321E-4
0.0050104509 ; 1.2132498607670536E-4 ;  ;  ;  ; 1.21266E-4
0.0051719303 ; 1.1939441947146044E-4 ;  ;  ;  ; 1.19352E-4
0.005318191 ; 1.176458E-4 ;  ;  ;  ; 1.1769860092715818E-4
0.0053385901 ; 1.1743524593755132E-4 ;  ;  ;  ; 1.17468E-4
0.005510645 ; 1.1565934120846032E-4 ;  ;  ;  ; 1.15613E-4
0.0056882194 ; 1.1382646567439824E-4 ;  ;  ;  ; 1.13788E-4
0.005866161 ; 1.119898E-4 ;  ;  ;  ; 1.1204277888032537E-4
0.0058715423 ; 1.1194184976988275E-4 ;  ;  ;  ; 1.1199E-4
0.0060607463 ; 1.1025594202656714E-4 ;  ;  ;  ; 1.1022E-4
0.0062560752 ; 1.0851545818371326E-4 ;  ;  ;  ; 1.08478E-4
0.0064576703 ; 1.0671913918356273E-4 ;  ;  ;  ; 1.06763E-4
0.006470592 ; 1.06604E-4 ;  ;  ;  ; 1.0665819645245005E-4
0.0066657914 ; 1.0510274091668041E-4 ;  ;  ;  ; 1.05075E-4
0.0068805892 ; 1.0345075249700769E-4 ;  ;  ;  ; 1.03414E-4
0.0071023404 ; 1.0174528617263879E-4 ;  ;  ;  ; 1.01778E-4
0.007137302 ; 1.014764E-4 ;  ;  ;  ; 1.0153205522292389E-4
0.0073312055 ; 1.0018911960160103E-4 ;  ;  ;  ; 1.00168E-4
0.0075674794 ; 9.862055193715307E-5 ;  ;  ;  ; 9.85838E-5
0.0078113331 ; 9.700166373716152E-5 ;  ;  ;  ; 9.70243E-5
0.007872708 ; 9.659421E-5 ;  ;  ;  ; 9.665004987183597E-5
0.0080630808 ; 9.550332020672108E-5 ;  ;  ;  ; 9.54892E-5
0.0083229047 ; 9.401445603831086E-5 ;  ;  ;  ; 9.39786E-5
0.0085911396 ; 9.247739446958258E-5 ;  ;  ;  ; 9.24915E-5
0.008683888 ; 9.194592E-5 ;  ;  ;  ; 9.200125749992775E-5
0.0088679796 ; 9.103543954947074E-5 ;  ;  ;  ; 9.10282E-5
0.0091537814 ; 8.962192067285677E-5 ;  ;  ;  ; 8.95877E-5
0.009448752 ; 8.816305473448217E-5 ;  ;  ;  ; 8.81702E-5
0.009578649 ; 8.752061E-5 ;  ;  ;  ; 8.757501492102961E-5
0.0097532712 ; 8.677535020520776E-5 ;  ;  ;  ; 8.67749E-5
0.0100675597 ; 8.54340168408614E-5 ;  ;  ;  ; 8.54018E-5
0.0103920222 ; 8.40492624615913E-5 ;  ;  ;  ; 8.40503E-5
0.0105656 ; 8.330846E-5 ;  ;  ;  ; 8.336095762174446E-5
0.0107268937 ; 8.271454982420153E-5 ;  ;  ;  ; 8.27204E-5
0.0110726055 ; 8.144158159349193E-5 ;  ;  ;  ; 8.14113E-5
0.0114294081 ; 8.012777519627151E-5 ;  ;  ;  ; 8.01232E-5
0.01165425 ; 7.929987E-5 ;  ;  ;  ; 7.934927607432332E-5
0.0117977609 ; 7.884392453391015E-5 ;  ;  ;  ; 7.88553E-5
0.0121779308 ; 7.763609472970136E-5 ;  ;  ;  ; 7.76077E-5
0.0125704075 ; 7.638916524970436E-5 ;  ;  ;  ; 7.63797E-5
0.01285507 ; 7.548477E-5 ;  ;  ;  ; 7.553049297894794E-5
0.012975475 ; 7.51546773131252E-5 ;  ;  ;  ; 7.51713E-5
0.0133936553 ; 7.400822775683516E-5 ;  ;  ;  ; 7.39819E-5
0.0138252511 ; 7.282499934218564E-5 ;  ;  ;  ; 7.28115E-5
0.01417962 ; 7.185349E-5 ;  ;  ;  ; 7.189529075129823E-5
0.0142708185 ; 7.163772953730613E-5 ;  ;  ;  ; 7.16595E-5
0.0147306799 ; 7.054977405076796E-5 ;  ;  ;  ; 7.05259E-5
0.0152054279 ; 6.942659934786177E-5 ;  ;  ;  ; 6.94101E-5
0.01564064 ; 6.839696E-5 ;  ;  ;  ; 6.843482623108538E-5
0.0156954061 ; 6.828512408752148E-5 ;  ;  ;  ; 6.83121E-5
0.0162012457 ; 6.725216696196815E-5 ;  ;  ;  ; 6.72315E-5
0.016723313 ; 6.618607182518289E-5 ;  ;  ;  ; 6.61682E-5
0.01725221 ; 6.510603E-5 ;  ;  ;  ; 6.514125383384826E-5
0.0172622806 ; 6.50882858227249E-5 ;  ;  ;  ; 6.51217E-5
0.0178185386 ; 6.410817137446009E-5 ;  ;  ;  ; 6.4092E-5
0.0183928037 ; 6.309632880923992E-5 ;  ;  ;  ; 6.30786E-5
0.0189854916 ; 6.20520256727426E-5 ;  ;  ;  ; 6.20815E-5
0.01902982 ; 6.197392E-5 ;  ;  ;  ; 6.201039334997291E-5
0.0195973658 ; 6.11114878491664E-5 ;  ;  ;  ; 6.11E-5
0.0202288694 ; 6.015186660272749E-5 ;  ;  ;  ; 6.01341E-5
0.0208808158 ; 5.916118085370033E-5 ;  ;  ;  ; 5.91833E-5
0.02099059 ; 5.899437E-5 ;  ;  ;  ; 5.903062857074705E-5
0.0215536771 ; 5.825598418852187E-5 ;  ;  ;  ; 5.82475E-5
0.0222483202 ; 5.7345086728641915E-5 ;  ;  ;  ; 5.73263E-5
0.0229652478 ; 5.64049672201377E-5 ;  ;  ;  ; 5.642E-5
0.0231534 ; 5.615824E-5 ;  ;  ;  ; 5.619329280749657E-5
0.0237053837 ; 5.552881133343389E-5 ;  ;  ;  ; 5.55282E-5
0.0244692636 ; 5.465775679527695E-5 ;  ;  ;  ; 5.46512E-5
0.02524188 ; 5.377674E-5 ;  ;  ;  ; 5.380582651686576E-5
0.0252522317 ; 5.376571326656917E-5 ;  ;  ;  ; 5.37945E-5
0.0253 ; 5.371483E-5 ;  ;  ;  ; 5.37436E-5
0.0261153815 ; 5.291112482388572E-5 ;  ;  ;  ; 5.28959E-5
0.0269569209 ; 5.208163633085011E-5 ;  ;  ;  ; 5.20624E-5
0.0278257025 ; 5.122529574815005E-5 ;  ;  ;  ; 5.12424E-5
0.02790683 ; 5.114533E-5 ;  ;  ;  ; 5.11694293517769E-5
0.0287223552 ; 5.045204962921014E-5 ;  ;  ;  ; 5.04359E-5
0.029648034 ; 4.966512735912417E-5 ;  ;  ;  ; 4.96425E-5
0.0306034093 ; 4.885296000705771E-5 ;  ;  ;  ; 4.88622E-5
0.03078227 ; 4.870091E-5 ;  ;  ;  ; 4.872299983238408E-5
0.0315897118 ; 4.8108254118845034E-5 ;  ;  ;  ; 4.80946E-5
0.0326076556 ; 4.736109143819706E-5 ;  ;  ;  ; 4.73394E-5
0.0336585519 ; 4.6589741883741266E-5 ;  ;  ;  ; 4.65962E-5
0.03395398 ; 4.63729E-5 ;  ;  ;  ; 4.639692540554903E-5
0.0347431618 ; 4.587310952296514E-5 ;  ;  ;  ; 4.58646E-5
0.0358628823 ; 4.516398819903101E-5 ;  ;  ;  ; 4.5144E-5
